Potential Energy  Kinetic Energy  Total Energy  Velocity  Position  time
0.510050 0.500000 1.010050 1.000000 1.010000 0.000000
0.520097 0.489953 1.010050 0.989902 1.019899 0.010000
0.530137 0.479904 1.010041 0.979698 1.029696 0.020000
0.540166 0.469866 1.010032 0.969398 1.039390 0.030000
0.550180 0.459843 1.010023 0.959003 1.048980 0.040000
0.560174 0.449838 1.010012 0.948513 1.058465 0.050000
0.570146 0.439853 1.009999 0.937927 1.067844 0.060000
0.580090 0.429892 1.009983 0.927246 1.077117 0.070000
0.590004 0.419958 1.009962 0.916469 1.086282 0.080000
0.599882 0.410064 1.009946 0.905609 1.095338 0.090000
0.609722 0.400203 1.009925 0.894654 1.104284 0.100000
0.619518 0.390388 1.009906 0.883615 1.113120 0.110000
0.629268 0.380611 1.009880 0.872481 1.121845 0.120000
0.638967 0.370887 1.009855 0.861263 1.130458 0.130000
0.648612 0.361218 1.009830 0.849962 1.138957 0.140000
0.658198 0.351606 1.009804 0.838578 1.147343 0.150000
0.667722 0.342055 1.009778 0.827110 1.155614 0.160000
0.677180 0.332568 1.009748 0.815558 1.163770 0.170000
0.686568 0.323147 1.009715 0.803924 1.171809 0.180000
0.695883 0.313795 1.009677 0.792205 1.179731 0.190000
0.705120 0.304515 1.009635 0.780404 1.187535 0.200000
0.714276 0.295319 1.009596 0.768530 1.195220 0.210000
0.723347 0.286202 1.009549 0.756574 1.202786 0.220000
0.732330 0.277174 1.009504 0.744545 1.210232 0.230000
0.741221 0.268238 1.009460 0.732446 1.217556 0.240000
0.750017 0.259398 1.009415 0.720274 1.224759 0.250000
0.758714 0.250654 1.009368 0.708032 1.231839 0.260000
0.767308 0.242011 1.009320 0.695717 1.238796 0.270000
0.775797 0.233471 1.009268 0.683331 1.245630 0.280000
0.784176 0.225036 1.009212 0.670874 1.252338 0.290000
0.792442 0.216709 1.009151 0.658345 1.258922 0.300000
0.800593 0.208501 1.009093 0.645757 1.265379 0.310000
0.808624 0.200413 1.009037 0.633109 1.271711 0.320000
0.816533 0.192441 1.008974 0.620389 1.277914 0.330000
0.824316 0.184595 1.008911 0.607610 1.283991 0.340000
0.831970 0.176876 1.008847 0.594771 1.289938 0.350000
0.839493 0.169288 1.008781 0.581872 1.295757 0.360000
0.846881 0.161832 1.008713 0.568914 1.301446 0.370000
0.854131 0.154511 1.008642 0.555897 1.307005 0.380000
0.861241 0.147333 1.008574 0.542831 1.312433 0.390000
0.868207 0.140294 1.008501 0.529706 1.317730 0.400000
0.875027 0.133404 1.008430 0.516534 1.322896 0.410000
0.881697 0.126656 1.008354 0.503302 1.327929 0.420000
0.888217 0.120061 1.008277 0.490022 1.332829 0.430000
0.894581 0.113619 1.008200 0.476694 1.337596 0.440000
0.900789 0.107332 1.008122 0.463319 1.342229 0.450000
0.906838 0.101203 1.008041 0.449896 1.346728 0.460000
0.912725 0.095233 1.007959 0.436425 1.351092 0.470000
0.918448 0.089430 1.007878 0.422919 1.355322 0.480000
0.924005 0.083790 1.007794 0.409365 1.359415 0.490000
0.929393 0.078319 1.007712 0.395775 1.363373 0.500000
0.934610 0.073014 1.007625 0.382137 1.367194 0.510000
0.939655 0.067883 1.007537 0.368464 1.370879 0.520000
0.944524 0.062926 1.007450 0.354755 1.374426 0.530000
0.949217 0.058144 1.007361 0.341010 1.377837 0.540000
0.953731 0.053540 1.007270 0.327229 1.381109 0.550000
0.958064 0.049114 1.007178 0.313413 1.384243 0.560000
0.962216 0.044872 1.007088 0.299573 1.387239 0.570000
0.966183 0.040811 1.006994 0.285697 1.390096 0.580000
0.969965 0.036937 1.006902 0.271797 1.392814 0.590000
0.973560 0.033249 1.006809 0.257874 1.395392 0.600000
0.976967 0.029747 1.006714 0.243914 1.397832 0.610000
0.980183 0.026434 1.006617 0.229931 1.400131 0.620000
0.983209 0.023312 1.006520 0.215924 1.402290 0.630000
0.986042 0.020383 1.006425 0.201905 1.404309 0.640000
0.988682 0.017646 1.006328 0.187862 1.406188 0.650000
0.991127 0.015102 1.006230 0.173795 1.407926 0.660000
0.993377 0.012755 1.006132 0.159717 1.409523 0.670000
0.995431 0.010603 1.006034 0.145626 1.410979 0.680000
0.997288 0.008648 1.005935 0.131512 1.412294 0.690000
0.998946 0.006890 1.005836 0.117385 1.413468 0.700000
1.000406 0.005330 1.005736 0.103247 1.414501 0.710000
1.001667 0.003969 1.005636 0.089097 1.415392 0.720000
1.002728 0.002809 1.005536 0.074947 1.416141 0.730000
1.003589 0.001847 1.005436 0.060785 1.416749 0.740000
1.004249 0.001087 1.005336 0.046623 1.417215 0.750000
1.004709 0.000526 1.005236 0.032449 1.417540 0.760000
1.004968 0.000167 1.005135 0.018275 1.417722 0.770000
1.005026 0.000008 1.005035 0.004101 1.417763 0.780000
1.004884 0.000051 1.004934 -0.010073 1.417663 0.790000
1.004540 0.000294 1.004834 -0.024247 1.417420 0.800000
1.003995 0.000738 1.004734 -0.038421 1.417036 0.810000
1.003250 0.001383 1.004633 -0.052595 1.416510 0.820000
1.002305 0.002228 1.004533 -0.066757 1.415842 0.830000
1.001160 0.003274 1.004434 -0.080919 1.415033 0.840000
0.999815 0.004519 1.004334 -0.095069 1.414083 0.850000
0.998271 0.005963 1.004234 -0.109208 1.412990 0.860000
0.996529 0.007606 1.004135 -0.123334 1.411757 0.870000
0.994590 0.009446 1.004036 -0.137448 1.410383 0.880000
0.992453 0.011484 1.003937 -0.151551 1.408867 0.890000
0.990121 0.013719 1.003839 -0.165641 1.407211 0.900000
0.987594 0.016147 1.003741 -0.179708 1.405414 0.910000
0.984872 0.018772 1.003644 -0.193763 1.403476 0.920000
0.981958 0.021589 1.003547 -0.207794 1.401398 0.930000
0.978852 0.024600 1.003453 -0.221813 1.399180 0.940000
0.975556 0.027803 1.003358 -0.235808 1.396822 0.950000
0.972070 0.031195 1.003265 -0.249779 1.394324 0.960000
0.968396 0.034776 1.003172 -0.263727 1.391687 0.970000
0.964536 0.038542 1.003078 -0.277638 1.388910 0.980000
0.960491 0.042494 1.002985 -0.291526 1.385995 0.990000
0.956263 0.046632 1.002895 -0.305390 1.382941 1.000000
0.951854 0.050950 1.002804 -0.319219 1.379749 1.010000
0.947265 0.055448 1.002713 -0.333011 1.376419 1.020000
0.942497 0.060128 1.002626 -0.346780 1.372951 1.030000
0.937554 0.064985 1.002539 -0.360513 1.369346 1.040000
0.932437 0.070017 1.002454 -0.374210 1.365604 1.050000
0.927148 0.075222 1.002370 -0.387871 1.361725 1.060000
0.921689 0.080595 1.002284 -0.401485 1.357710 1.070000
0.916062 0.086139 1.002201 -0.415063 1.353560 1.080000
0.910270 0.091846 1.002116 -0.428593 1.349274 1.090000
0.904315 0.097721 1.002035 -0.442088 1.344853 1.100000
0.898199 0.103756 1.001955 -0.455534 1.340298 1.110000
0.891925 0.109949 1.001874 -0.468934 1.335608 1.120000
0.885495 0.116299 1.001794 -0.482285 1.330785 1.130000
0.878912 0.122804 1.001716 -0.495589 1.325830 1.140000
0.872178 0.129462 1.001640 -0.508845 1.320741 1.150000
0.865297 0.136270 1.001567 -0.522053 1.315521 1.160000
0.858271 0.143227 1.001498 -0.535214 1.310168 1.170000
0.851102 0.150325 1.001426 -0.548315 1.304685 1.180000
0.843794 0.157561 1.001354 -0.561357 1.299072 1.190000
0.836349 0.164939 1.001288 -0.574350 1.293328 1.200000
0.828771 0.172452 1.001222 -0.587285 1.287455 1.210000
0.821062 0.180096 1.001157 -0.600159 1.281454 1.220000
0.813226 0.187869 1.001094 -0.612974 1.275324 1.230000
0.805265 0.195769 1.001034 -0.625730 1.269067 1.240000
0.797183 0.203793 1.000977 -0.638425 1.262682 1.250000
0.788984 0.211933 1.000917 -0.651050 1.256172 1.260000
0.780670 0.220192 1.000862 -0.663614 1.249536 1.270000
0.772245 0.228561 1.000805 -0.676107 1.242775 1.280000
0.763711 0.237044 1.000756 -0.688541 1.235889 1.290000
0.755073 0.245632 1.000706 -0.700903 1.228880 1.300000
0.746334 0.254322 1.000657 -0.713193 1.221748 1.310000
0.737498 0.263112 1.000610 -0.725412 1.214494 1.320000
0.728568 0.271997 1.000565 -0.737560 1.207119 1.330000
0.719547 0.280977 1.000524 -0.749636 1.199622 1.340000
0.710439 0.290039 1.000478 -0.761628 1.192006 1.350000
0.701248 0.299189 1.000437 -0.773549 1.184271 1.360000
0.691978 0.308416 1.000394 -0.785387 1.176417 1.370000
0.682632 0.317726 1.000358 -0.797153 1.168445 1.380000
0.673214 0.327107 1.000321 -0.808835 1.160357 1.390000
0.663728 0.336556 1.000284 -0.820434 1.152152 1.400000
0.654177 0.346070 1.000247 -0.831950 1.143833 1.410000
0.644565 0.355657 1.000222 -0.843394 1.135399 1.420000
0.634897 0.365292 1.000190 -0.854743 1.126852 1.430000
0.625176 0.374985 1.000161 -0.866008 1.118191 1.440000
0.615406 0.384731 1.000137 -0.877190 1.109420 1.450000
0.605591 0.394528 1.000118 -0.888288 1.100537 1.460000
0.595734 0.404362 1.000096 -0.899291 1.091544 1.470000
0.585840 0.414242 1.000082 -0.910211 1.082442 1.480000
0.575913 0.424153 1.000065 -0.921035 1.073231 1.490000
0.565956 0.434092 1.000048 -0.931764 1.063914 1.500000
0.555974 0.444056 1.000031 -0.942397 1.054490 1.510000
0.545971 0.454054 1.000025 -0.952947 1.044960 1.520000
0.535950 0.464072 1.000022 -0.963402 1.035326 1.530000
0.525916 0.474094 1.000010 -0.973749 1.025589 1.540000
0.515873 0.484129 1.000002 -0.984001 1.015749 1.550000
0.505824 0.494175 0.999999 -0.994158 1.005807 1.560000
0.495774 0.504222 0.999996 -1.004213 0.995765 1.570000
0.485727 0.514273 1.000000 -1.014173 0.985623 1.580000
0.475686 0.524320 1.000006 -1.024032 0.975383 1.590000
0.465656 0.534354 1.000010 -1.033783 0.965045 1.600000
0.455641 0.544376 1.000017 -1.043433 0.954611 1.610000
0.445644 0.554385 1.000030 -1.052982 0.944081 1.620000
0.435671 0.564371 1.000042 -1.062423 0.933457 1.630000
0.425724 0.574332 1.000055 -1.071757 0.922739 1.640000
0.415808 0.584263 1.000071 -1.080984 0.911929 1.650000
0.405926 0.594163 1.000089 -1.090103 0.901028 1.660000
0.396083 0.604028 1.000111 -1.099116 0.890037 1.670000
0.386283 0.613848 1.000131 -1.108015 0.878957 1.680000
0.376529 0.623628 1.000157 -1.116806 0.867789 1.690000
0.366825 0.633358 1.000183 -1.125485 0.856534 1.700000
0.357176 0.643035 1.000211 -1.134050 0.845194 1.710000
0.347585 0.652655 1.000240 -1.142502 0.833769 1.720000
0.338056 0.662217 1.000273 -1.150841 0.822260 1.730000
0.328593 0.671717 1.000309 -1.159066 0.810670 1.740000
0.319199 0.681145 1.000344 -1.167172 0.798998 1.750000
0.309878 0.690500 1.000378 -1.175159 0.787246 1.760000
0.300635 0.699784 1.000418 -1.183033 0.775416 1.770000
0.291472 0.708987 1.000460 -1.190788 0.763508 1.780000
0.282394 0.718109 1.000503 -1.198423 0.751524 1.790000
0.273404 0.727144 1.000548 -1.205939 0.739464 1.800000
0.264505 0.736092 1.000597 -1.213336 0.727331 1.810000
0.255702 0.744942 1.000643 -1.220608 0.715125 1.820000
0.246997 0.753698 1.000695 -1.227760 0.702847 1.830000
0.238395 0.762350 1.000745 -1.234788 0.690499 1.840000
0.229898 0.770897 1.000795 -1.241690 0.678083 1.850000
0.221510 0.779342 1.000853 -1.248473 0.665598 1.860000
0.213235 0.787677 1.000911 -1.255131 0.653047 1.870000
0.205075 0.795897 1.000973 -1.261663 0.640430 1.880000
0.197035 0.803994 1.001029 -1.268065 0.627749 1.890000
0.189116 0.811973 1.001089 -1.274341 0.615006 1.900000
0.181323 0.819831 1.001154 -1.280493 0.602201 1.910000
0.173658 0.827557 1.001216 -1.286513 0.589336 1.920000
0.166125 0.835159 1.001284 -1.292408 0.576412 1.930000
0.158727 0.842624 1.001351 -1.298171 0.563430 1.940000
0.151466 0.849952 1.001418 -1.303804 0.550392 1.950000
0.144345 0.857140 1.001485 -1.309305 0.537299 1.960000
0.137368 0.864186 1.001554 -1.314676 0.524152 1.970000
0.130536 0.871088 1.001624 -1.319915 0.510953 1.980000
0.123854 0.877843 1.001697 -1.325023 0.497703 1.990000
0.117323 0.884450 1.001773 -1.330000 0.484403 2.000000
0.110946 0.890903 1.001849 -1.334843 0.471054 2.010000
0.104726 0.897204 1.001929 -1.339555 0.457659 2.020000
0.098665 0.903346 1.002011 -1.344132 0.444217 2.030000
0.092765 0.909329 1.002093 -1.348576 0.430732 2.040000
0.087029 0.915145 1.002174 -1.352882 0.417203 2.050000
0.081460 0.920799 1.002258 -1.357055 0.403632 2.060000
0.076058 0.926283 1.002341 -1.361090 0.390021 2.070000
0.070828 0.931600 1.002428 -1.364991 0.376372 2.080000
0.065770 0.936745 1.002515 -1.368755 0.362684 2.090000
0.060887 0.941716 1.002603 -1.372382 0.348960 2.100000
0.056180 0.946512 1.002692 -1.375872 0.335201 2.110000
0.051652 0.951130 1.002782 -1.379225 0.321409 2.120000
0.047304 0.955567 1.002871 -1.382437 0.307585 2.130000
0.043139 0.959823 1.002962 -1.385513 0.293730 2.140000
0.039157 0.963899 1.003055 -1.388451 0.279845 2.150000
0.035360 0.967788 1.003148 -1.391250 0.265933 2.160000
0.031750 0.971490 1.003241 -1.393908 0.251994 2.170000
0.028329 0.975006 1.003335 -1.396428 0.238029 2.180000
0.025097 0.978332 1.003429 -1.398808 0.224041 2.190000
0.022056 0.981469 1.003525 -1.401049 0.210031 2.200000
0.019208 0.984413 1.003621 -1.403149 0.195999 2.210000
0.016553 0.987164 1.003717 -1.405108 0.181948 2.220000
0.014092 0.989722 1.003814 -1.406927 0.167879 2.230000
0.011826 0.992087 1.003913 -1.408607 0.153793 2.240000
0.009757 0.994254 1.004011 -1.410145 0.139691 2.250000
0.007885 0.996224 1.004108 -1.411541 0.125576 2.260000
0.006210 0.997997 1.004207 -1.412796 0.111448 2.270000
0.004735 0.999572 1.004306 -1.413911 0.097309 2.280000
0.003458 1.000948 1.004406 -1.414884 0.083160 2.290000
0.002381 1.002125 1.004506 -1.415715 0.069003 2.300000
0.001504 1.003102 1.004606 -1.416405 0.054839 2.310000
0.000827 1.003879 1.004706 -1.416954 0.040669 2.320000
0.000351 1.004455 1.004806 -1.417360 0.026496 2.330000
0.000076 1.004831 1.004907 -1.417625 0.012319 2.340000
0.000002 1.005005 1.005007 -1.417748 -0.001858 2.350000
0.000129 1.004979 1.005107 -1.417730 -0.016035 2.360000
0.000456 1.004752 1.005208 -1.417570 -0.030211 2.370000
0.000985 1.004323 1.005308 -1.417267 -0.044384 2.380000
0.001714 1.003695 1.005409 -1.416824 -0.058552 2.390000
0.002644 1.002865 1.005509 -1.416238 -0.072714 2.400000
0.003773 1.001836 1.005609 -1.415511 -0.086869 2.410000
0.005102 1.000607 1.005709 -1.414643 -0.101016 2.420000
0.006630 0.999178 1.005808 -1.413632 -0.115152 2.430000
0.008356 0.997550 1.005907 -1.412480 -0.129277 2.440000
0.010280 0.995725 1.006005 -1.411188 -0.143389 2.450000
0.012401 0.993703 1.006104 -1.409754 -0.157486 2.460000
0.014718 0.991484 1.006202 -1.408179 -0.171568 2.470000
0.017230 0.989070 1.006300 -1.406464 -0.185633 2.480000
0.019936 0.986461 1.006397 -1.404607 -0.199679 2.490000
0.022835 0.983658 1.006493 -1.402611 -0.213705 2.500000
0.025926 0.980663 1.006589 -1.400474 -0.227710 2.510000
0.029207 0.977477 1.006685 -1.398197 -0.241692 2.520000
0.032678 0.974101 1.006779 -1.395780 -0.255649 2.530000
0.036337 0.970535 1.006872 -1.393223 -0.269582 2.540000
0.040182 0.966781 1.006963 -1.390526 -0.283487 2.550000
0.044213 0.962844 1.007056 -1.387691 -0.297364 2.560000
0.048426 0.958721 1.007147 -1.384717 -0.311211 2.570000
0.052821 0.954417 1.007239 -1.381606 -0.325027 2.580000
0.057396 0.949930 1.007327 -1.378354 -0.338811 2.590000
0.062149 0.945266 1.007415 -1.374966 -0.352560 2.600000
0.067079 0.940424 1.007503 -1.371440 -0.366275 2.610000
0.072182 0.935408 1.007590 -1.367778 -0.379952 2.620000
0.077457 0.930218 1.007675 -1.363978 -0.393592 2.630000
0.082903 0.924856 1.007759 -1.360041 -0.407193 2.640000
0.088516 0.919327 1.007843 -1.355970 -0.420752 2.650000
0.094295 0.913630 1.007925 -1.351762 -0.434270 2.660000
0.100237 0.907770 1.008007 -1.347420 -0.447744 2.670000
0.106341 0.901748 1.008089 -1.342943 -0.461174 2.680000
0.112602 0.895567 1.008170 -1.338333 -0.474557 2.690000
0.119020 0.889229 1.008249 -1.333588 -0.487893 2.700000
0.125591 0.882735 1.008325 -1.328710 -0.501180 2.710000
0.132312 0.876091 1.008403 -1.323700 -0.514417 2.720000
0.139182 0.869295 1.008477 -1.318556 -0.527602 2.730000
0.146197 0.862354 1.008551 -1.313281 -0.540735 2.740000
0.153355 0.855268 1.008623 -1.307875 -0.553814 2.750000
0.160652 0.848042 1.008694 -1.302338 -0.566837 2.760000
0.168086 0.840676 1.008762 -1.296669 -0.579804 2.770000
0.175654 0.833172 1.008827 -1.290870 -0.592713 2.780000
0.183353 0.825542 1.008895 -1.284945 -0.605562 2.790000
0.191179 0.817779 1.008958 -1.278889 -0.618351 2.800000
0.199130 0.809893 1.009023 -1.272708 -0.631078 2.810000
0.207202 0.801879 1.009081 -1.266396 -0.643742 2.820000
0.215392 0.793748 1.009140 -1.259959 -0.656342 2.830000
0.223697 0.785501 1.009199 -1.253396 -0.668876 2.840000
0.232114 0.777141 1.009255 -1.246709 -0.681343 2.850000
0.240639 0.768671 1.009310 -1.239896 -0.693742 2.860000
0.249268 0.760092 1.009361 -1.232958 -0.706071 2.870000
0.257999 0.751409 1.009408 -1.225895 -0.718330 2.880000
0.266828 0.742630 1.009458 -1.218712 -0.730517 2.890000
0.275751 0.733751 1.009502 -1.211405 -0.742631 2.900000
0.284764 0.724782 1.009546 -1.203978 -0.754671 2.910000
0.293865 0.715725 1.009590 -1.196432 -0.766636 2.920000
0.303049 0.706583 1.009633 -1.188767 -0.778523 2.930000
0.312313 0.697360 1.009673 -1.180983 -0.790333 2.940000
0.321653 0.688057 1.009710 -1.173079 -0.802064 2.950000
0.331066 0.678678 1.009744 -1.165056 -0.813714 2.960000
0.340547 0.669232 1.009779 -1.156920 -0.825284 2.970000
0.350092 0.659716 1.009808 -1.148665 -0.836770 2.980000
0.359699 0.650138 1.009837 -1.140296 -0.848173 2.990000
0.369363 0.640502 1.009865 -1.131815 -0.859491 3.000000
0.379080 0.630811 1.009891 -1.123220 -0.870724 3.010000
0.388846 0.621068 1.009914 -1.114511 -0.881869 3.020000
0.398658 0.611275 1.009933 -1.105690 -0.892926 3.030000
0.408511 0.601443 1.009954 -1.096761 -0.903893 3.040000
0.418403 0.591573 1.009976 -1.087725 -0.914770 3.050000
0.428327 0.581663 1.009990 -1.078576 -0.925556 3.060000
0.438282 0.571722 1.010003 -1.069319 -0.936249 3.070000
0.448261 0.561753 1.010014 -1.059955 -0.946849 3.080000
0.458263 0.551759 1.010022 -1.050484 -0.957354 3.090000
0.468283 0.541749 1.010031 -1.040912 -0.967763 3.100000
0.478316 0.531720 1.010035 -1.031232 -0.978075 3.110000
0.488358 0.521681 1.010039 -1.021451 -0.988290 3.120000
0.498407 0.511635 1.010042 -1.011568 -0.998405 3.130000
0.508457 0.501586 1.010043 -1.001585 -1.008421 3.140000
0.518504 0.491536 1.010040 -0.991499 -1.018336 3.150000
0.528546 0.481493 1.010039 -0.981319 -1.028149 3.160000
0.538577 0.471462 1.010039 -0.971043 -1.037860 3.170000
0.548593 0.461434 1.010027 -0.960660 -1.047467 3.180000
0.558591 0.451422 1.010013 -0.950181 -1.056968 3.190000
0.568567 0.441431 1.009998 -0.939608 -1.066364 3.200000
0.578516 0.431463 1.009979 -0.928938 -1.075654 3.210000
0.588434 0.421533 1.009967 -0.918186 -1.084836 3.220000
0.598318 0.411631 1.009949 -0.907338 -1.093909 3.230000
0.608164 0.401761 1.009926 -0.896394 -1.102873 3.240000
0.617968 0.391938 1.009906 -0.885367 -1.111727 3.250000
0.627725 0.382152 1.009878 -0.874245 -1.120469 3.260000
0.637433 0.372419 1.009851 -0.863039 -1.129099 3.270000
0.647086 0.362739 1.009826 -0.851750 -1.137617 3.280000
0.656682 0.353117 1.009799 -0.840378 -1.146021 3.290000
0.666216 0.343556 1.009771 -0.828922 -1.154310 3.300000
0.675684 0.334057 1.009741 -0.817382 -1.162484 3.310000
0.685084 0.324624 1.009708 -0.805759 -1.170541 3.320000
0.694410 0.315260 1.009670 -0.794053 -1.178482 3.330000
0.703659 0.305968 1.009627 -0.782263 -1.186305 3.340000
0.712828 0.296760 1.009588 -0.770402 -1.194009 3.350000
0.721913 0.287629 1.009542 -0.758457 -1.201593 3.360000
0.730910 0.278587 1.009497 -0.746441 -1.209058 3.370000
0.739816 0.269637 1.009453 -0.734353 -1.216401 3.380000
0.748627 0.260782 1.009408 -0.722194 -1.223623 3.390000
0.757339 0.252024 1.009363 -0.709963 -1.230723 3.400000
0.765950 0.243365 1.009315 -0.697660 -1.237699 3.410000
0.774455 0.234809 1.009264 -0.685287 -1.244552 3.420000
0.782852 0.226358 1.009209 -0.672841 -1.251281 3.430000
0.791136 0.218014 1.009150 -0.660324 -1.257884 3.440000
0.799305 0.209788 1.009093 -0.647748 -1.264361 3.450000
0.807355 0.201676 1.009030 -0.635099 -1.270712 3.460000
0.815283 0.193686 1.008969 -0.622392 -1.276936 3.470000
0.823086 0.185821 1.008907 -0.609624 -1.283032 3.480000
0.830761 0.178084 1.008845 -0.596797 -1.289000 3.490000
0.838305 0.170476 1.008781 -0.583911 -1.294840 3.500000
0.845714 0.163000 1.008714 -0.570965 -1.300549 3.510000
0.852986 0.155659 1.008645 -0.557959 -1.306129 3.520000
0.860118 0.148455 1.008573 -0.544894 -1.311578 3.530000
0.867107 0.141395 1.008502 -0.531781 -1.316895 3.540000
0.873950 0.134477 1.008427 -0.518608 -1.322082 3.550000
0.880644 0.127708 1.008353 -0.505388 -1.327135 3.560000
0.887187 0.121091 1.008278 -0.492120 -1.332057 3.570000
0.893577 0.114627 1.008204 -0.478804 -1.336845 3.580000
0.899810 0.108318 1.008127 -0.465441 -1.341499 3.590000
0.905884 0.102165 1.008049 -0.452030 -1.346019 3.600000
